printDict{
    @t             [s]
    @position_x    [mm]
    @position_y    [mm]
    ?speed_x       [m/s]
    ?speed_y       [m/s]
}

$t:s:Simulation Time$position_x:mm:Body position in x$position_y:mm:Body position in y
#_OPTIONs: THERMAL = 0, CAVITATION = 0
0        0                0
0.1      0.998334166      0.001
0.2      1.986693308      0.004
0.3      2.955202067      0.009
0.4      3.894183423      0.016
0.5      4.794255386      0.025
0.6      5.646424734      0.036
0.7      6.442176872      0.049
0.8      7.173560909      0.064
0.9      7.833269096      0.081
1        8.414709848      0.1
1.1      8.912073601      0.121
1.2      9.32039086       0.144
1.3      9.635581854      0.169
1.4      9.8544973        0.196
1.5      9.974949866      0.225
1.6      9.99573603       0.256
1.7      9.916648105      0.289
1.8      9.738476309      0.324
1.9      9.463000877      0.361
2        9.092974268      0.4
2.1      8.632093666      0.441
2.2      8.084964038      0.484
2.3      7.457052122      0.529
2.4      6.754631806      0.576
2.5      5.984721441      0.625
2.6      5.155013718      0.676
2.7      4.273798802      0.729
2.8      3.349881502      0.784
2.9      2.392493292      0.841
3        1.411200081      0.9
3.1      0.415806624      0.961
3.2      -0.583741434     1.024
3.3      -1.577456941     1.089
3.4      -2.55541102      1.156
3.5      -3.507832277     1.225
3.6      -4.425204433     1.296
3.7      -5.298361409     1.369
3.8      -6.118578909     1.444
3.9      -6.877661592     1.521
4        -7.568024953     1.6
4.1      -8.182771111     1.681
4.2      -8.715757724     1.764
4.3      -9.161659367     1.849
4.4      -9.516020739     1.936
4.5      -9.775301177     2.025
4.6      -9.936910036     2.116
4.7      -9.999232576     2.209
4.8      -9.961646088     2.304
4.9      -9.824526126     2.401
5        -9.589242747     2.5
5.1      -9.258146823     2.601
5.2      -8.834546557     2.704
5.3      -8.322674422     2.809
5.4      -7.727644876     2.916
5.5      -7.055403256     3.025
5.6      -6.312666379     3.136
5.7      -5.506855426     3.249
5.8      -4.646021794     3.364
5.9      -3.738766648     3.481
6        -2.794154982     3.6
6.1      -1.821625043     3.721
6.2      -0.830894028     3.844
6.3      0.168139005      3.969
6.4      1.165492049      4.096
6.5      2.151199881      4.225
6.6      3.115413635      4.356
6.7      4.048499206      4.489
6.8      4.941133511      4.624
6.9      5.784397644      4.761
7        6.569865987      4.9
7.1      7.289690401      5.041
7.2      7.936678638      5.184
7.3      8.504366206      5.329
7.4      8.987080958      5.476
7.5      9.379999768      5.625
7.6      9.67919672       5.776
7.7      9.881682339      5.929
7.8      9.985433454      6.084
7.9      9.989413418      6.241
8        9.893582466      6.4
8.1      9.698898108      6.561
8.2      9.407305567      6.724
8.3      9.021718338      6.889
8.4      8.545989081      7.056
8.5      7.984871126      7.225
8.6      7.343970979      7.396
8.7      6.629692301      7.569
8.8      5.849171929      7.744
8.9      5.010208565      7.921
9        4.121184852      8.1
9.1      3.190983623      8.281
9.2      2.228899141      8.464
9.3      1.244544235      8.649
9.4      0.247754255      8.836
9.5      -0.751511205     9.025
9.6      -1.743267812     9.216
9.7      -2.717606264     9.409
9.8      -3.664791293     9.604
9.9      -4.575358938     9.801
10      -5.440211109      10
